SHG FROG
Grid size is 256
Starting with Projections
Data in XXXX had 115 taus and 768 w's
Data read in assuming constant wavelength
The experimental time increment is 4.46838 fs.
The expermental data is on a -0.0798546 nm spacing.
The center wavelength was 400 nm.
The FFT requires data on a 0.466239 nm spacing.
This means that there are 5.8386 too many data points.

Trace fractionally shifted to center 53.2217.
The value of tau0 was 53
Max of ZOFM was at 426.
0 0.115439
1 0.107335
2 0.103118
3 0.100878
4 0.099461
5 0.0984231
6 0.0975547
7 0.0967469
8 0.0960435
9 0.0954311
10 0.0948836
11 0.0943894
12 0.09394
13 0.0935275
14 0.0931372
15 0.0927724
16 0.0924355
17 0.0921237
18 0.0918389
19 0.0915755
20 0.0913248
21 0.0910804
22 0.0908397
23 0.090603
24 0.0903622
25 0.090109
26 0.0898543
27 0.0895904
28 0.089308
29 0.0890049
30 0.0886763
31 0.088309
32 0.0878968
33 0.0874366
34 0.0869468
35 0.0864425
36 0.0859387
37 0.08544
38 0.0849348
39 0.0844388
40 0.0839493
41 0.0834852
42 0.0830542
43 0.0826689
44 0.0823242
45 0.0820222
46 0.0817614
47 0.0815373
48 0.081356
49 0.0812255
50 0.0811514
51 0.0811504
52 0.0812096
53 0.0812901
54 0.0813707
55 0.0814382
56 0.081493
57 0.0815362
58 0.0815689
59 0.0815923
60 0.0816102
61 0.0816219
62 0.0816279

POVER
63 0.0986848
64 0.0879261
65 0.0824896
66 0.0858597
67 0.0820451
68 0.0835376
69 0.0832121
70 0.0832837
71 0.0832981
72 0.0832794
73 0.0832402
74 0.0831846
75 0.0831164

VANILLA
76 0.0838399
77 0.0865943
78 0.087224
79 0.0878889
80 0.0887586
81 0.0890919
82 0.0888335
83 0.0883612
84 0.0878813
85 0.0875648

EXPO
86 0.114337
87 0.126239
88 0.102876
89 0.0960231
90 0.0899526
91 0.0868584
92 0.0878325
93 0.0919023
94 0.0960702
95 0.0904005
96 0.0906828
97 0.122492

INTENSITY GATE
98 0.0826832
99 0.085793
100 0.086667
101 0.0887847
102 0.0955469
103 0.0949199
104 0.09922
105 0.0974372
106 0.0898719

PROJECTION
107 0.0812096
108 0.0812901
109 0.0813707
110 0.0814382
111 0.081493
112 0.0815362
113 0.0815689
114 0.0815923
115 0.0816102
116 0.0816219
117 0.0816279

POVER
118 0.0812718
119 0.0814398
120 0.0815463
121 0.0816088
122 0.0816395
123 0.0816496
124 0.0816449
125 0.0816388
126 0.0816292
127 0.0816101
128 0.081587

VANILLA
129 0.0838399
130 0.0865943
131 0.087224
132 0.0878889
133 0.0887586
134 0.0890919
135 0.0888335
136 0.0883612
137 0.0878813
138 0.0875648

EXPO
139 0.114337
140 0.126239
141 0.102876
142 0.0960231
143 0.0899526
144 0.0868584
145 0.0878325
146 0.0919023
147 0.0960702
148 0.0904005
149 0.0906828
150 0.122492

INTENSITY GATE
151 0.0826832
152 0.085793
153 0.086667
154 0.0887847
155 0.0955469
156 0.0949199
157 0.09922
158 0.0974372
159 0.0898719

PROJECTION
160 0.0859464
161 0.0850418
162 0.0845506
163 0.0842005
164 0.0839241
165 0.0837009
166 0.083524
167 0.0833769
168 0.0832591
169 0.083163
170 0.0830835
171 0.0830166
172 0.0829641
173 0.0829299
174 0.0829049
175 0.0828863
176 0.0828721
177 0.0828593
178 0.0828441

PROJECTION
179 0.0812096
180 0.0812901
181 0.0813707
182 0.0814382
183 0.081493
184 0.0815362
185 0.0815689
186 0.0815923
187 0.0816102
188 0.0816219
189 0.0816279

POVER
190 0.0986848
191 0.0879261
192 0.0824896
193 0.0858597
194 0.0820451
195 0.0835376
196 0.0832121

The best error achieved was 0.0811504.

